freq,psd_x,psd_y,psd_z,psd_xyz
0.0,1.170e+02,9.605e+00,7.232e+02,8.498e+02
1.4,9.302e+01,2.768e+01,4.763e+02,5.970e+02
2.9,3.560e+01,2.871e+01,5.045e+01,1.148e+02
4.3,3.197e+01,3.040e+01,2.149e+02,2.773e+02
5.7,3.246e+01,3.307e+01,9.939e+02,1.059e+03
7.1,3.430e+01,3.427e+01,1.683e+03,1.751e+03
8.6,3.677e+01,4.288e+01,2.565e+03,2.645e+03
10.0,3.674e+01,4.647e+01,3.486e+03,3.569e+03
11.4,3.700e+01,3.873e+01,4.154e+03,4.230e+03
12.9,4.091e+01,4.311e+01,4.713e+03,4.797e+03
14.3,3.968e+01,5.384e+01,5.858e+03,5.952e+03
15.7,3.404e+01,4.753e+01,7.614e+03,7.696e+03
17.1,3.548e+01,3.949e+01,1.001e+04,1.008e+04
18.6,3.956e+01,4.699e+01,1.284e+04,1.292e+04
20.0,5.143e+01,5.137e+01,1.579e+04,1.589e+04
21.4,6.048e+01,5.991e+01,1.860e+04,1.872e+04
22.9,6.640e+01,8.253e+01,2.099e+04,2.114e+04
24.3,6.653e+01,8.891e+01,2.400e+04,2.415e+04
25.7,7.850e+01,8.111e+01,2.866e+04,2.882e+04
27.1,1.055e+02,9.717e+01,3.510e+04,3.530e+04
28.6,1.083e+02,1.380e+02,4.146e+04,4.170e+04
30.0,1.348e+02,1.572e+02,4.828e+04,4.857e+04
31.4,2.076e+02,1.793e+02,5.623e+04,5.662e+04
32.9,2.474e+02,2.454e+02,6.558e+04,6.608e+04
34.3,2.659e+02,3.593e+02,7.745e+04,7.807e+04
35.7,3.543e+02,4.253e+02,9.376e+04,9.454e+04
37.1,5.958e+02,5.251e+02,1.161e+05,1.172e+05
38.6,9.189e+02,6.704e+02,1.431e+05,1.447e+05
40.0,1.268e+03,5.799e+02,1.671e+05,1.689e+05
41.4,1.609e+03,5.084e+02,1.913e+05,1.934e+05
42.9,2.063e+03,1.026e+03,2.363e+05,2.394e+05
44.3,3.115e+03,2.492e+03,3.267e+05,3.324e+05
45.7,5.424e+03,4.994e+03,4.855e+05,4.960e+05
47.1,1.130e+04,7.208e+03,7.872e+05,8.057e+05
48.6,2.655e+04,8.354e+03,1.396e+06,1.431e+06
50.0,4.854e+04,9.435e+03,2.099e+06,2.157e+06
51.4,6.086e+04,8.073e+03,2.253e+06,2.322e+06
52.9,6.435e+04,6.376e+03,2.052e+06,2.123e+06
54.3,6.641e+04,6.138e+03,1.794e+06,1.866e+06
55.7,7.493e+04,5.923e+03,1.606e+06,1.687e+06
57.1,1.049e+05,5.021e+03,1.585e+06,1.695e+06
58.6,1.577e+05,3.221e+03,1.607e+06,1.767e+06
60.0,1.970e+05,1.986e+03,1.521e+06,1.720e+06
61.4,2.134e+05,2.229e+03,1.380e+06,1.596e+06
62.9,2.395e+05,2.418e+03,1.230e+06,1.472e+06
64.3,2.820e+05,2.061e+03,1.095e+06,1.379e+06
65.7,3.428e+05,1.185e+03,9.624e+05,1.306e+06
67.1,4.251e+05,5.707e+02,8.261e+05,1.252e+06
68.6,4.833e+05,6.051e+02,6.582e+05,1.142e+06
70.0,5.092e+05,1.047e+03,5.085e+05,1.019e+06
71.4,5.446e+05,1.938e+03,4.150e+05,9.615e+05
72.9,5.654e+05,3.113e+03,3.771e+05,9.456e+05
74.3,5.409e+05,4.247e+03,3.404e+05,8.855e+05
75.7,4.929e+05,5.625e+03,3.068e+05,8.053e+05
77.1,4.218e+05,6.361e+03,2.649e+05,6.931e+05
78.6,3.419e+05,6.239e+03,2.236e+05,5.718e+05
80.0,2.779e+05,6.136e+03,1.996e+05,4.836e+05
81.4,2.279e+05,6.315e+03,1.835e+05,4.178e+05
82.8,1.854e+05,6.251e+03,1.693e+05,3.609e+05
84.3,1.449e+05,5.611e+03,1.487e+05,2.993e+05
85.7,1.067e+05,3.912e+03,1.217e+05,2.323e+05
87.1,7.550e+04,1.833e+03,1.057e+05,1.830e+05
88.6,6.470e+04,1.118e+03,1.126e+05,1.784e+05
90.0,5.827e+04,1.586e+03,1.116e+05,1.714e+05
91.4,5.399e+04,1.567e+03,1.022e+05,1.577e+05
92.8,5.215e+04,1.865e+03,8.727e+04,1.413e+05
94.3,4.670e+04,2.628e+03,7.614e+04,1.255e+05
95.7,3.852e+04,5.161e+03,6.593e+04,1.096e+05
97.1,3.148e+04,6.980e+03,5.891e+04,9.738e+04
98.6,3.004e+04,5.932e+03,5.695e+04,9.292e+04
100.0,2.622e+04,7.131e+03,5.090e+04,8.425e+04
101.4,2.064e+04,9.174e+03,4.434e+04,7.415e+04
102.8,1.474e+04,1.278e+04,4.002e+04,6.754e+04
104.3,8.885e+03,1.536e+04,3.662e+04,6.087e+04
105.7,6.843e+03,1.552e+04,3.416e+04,5.652e+04
107.1,8.699e+03,1.350e+04,3.434e+04,5.653e+04
108.6,1.077e+04,1.052e+04,3.632e+04,5.760e+04
110.0,1.093e+04,8.627e+03,3.670e+04,5.626e+04
111.4,9.632e+03,7.564e+03,3.431e+04,5.151e+04
112.8,8.532e+03,6.216e+03,3.098e+04,4.572e+04
114.3,8.072e+03,4.409e+03,2.861e+04,4.109e+04
115.7,7.758e+03,2.750e+03,2.708e+04,3.759e+04
117.1,6.998e+03,1.738e+03,2.568e+04,3.442e+04
118.6,5.762e+03,1.635e+03,2.405e+04,3.145e+04
120.0,4.757e+03,2.048e+03,2.267e+04,2.948e+04
121.4,4.006e+03,2.212e+03,2.115e+04,2.736e+04
122.8,3.269e+03,2.222e+03,1.943e+04,2.492e+04
124.3,2.803e+03,2.245e+03,1.838e+04,2.343e+04
125.7,2.750e+03,2.016e+03,1.808e+04,2.285e+04
127.1,3.079e+03,2.220e+03,2.100e+04,2.630e+04
128.6,3.437e+03,2.618e+03,2.732e+04,3.338e+04
130.0,3.903e+03,2.444e+03,3.522e+04,4.157e+04
131.4,3.806e+03,2.256e+03,4.217e+04,4.823e+04
132.8,2.846e+03,2.541e+03,4.140e+04,4.678e+04
134.3,1.618e+03,3.283e+03,3.598e+04,4.088e+04
135.7,1.426e+03,4.271e+03,4.038e+04,4.608e+04
137.1,1.239e+03,5.122e+03,4.250e+04,4.886e+04
138.6,9.634e+02,5.934e+03,4.116e+04,4.805e+04
140.0,6.143e+02,6.507e+03,3.476e+04,4.188e+04
141.4,3.424e+02,7.166e+03,2.733e+04,3.484e+04
142.8,3.788e+02,7.758e+03,2.502e+04,3.316e+04
144.3,5.299e+02,8.336e+03,2.897e+04,3.783e+04
145.7,7.852e+02,8.919e+03,2.591e+04,3.562e+04
147.1,1.059e+03,9.120e+03,2.198e+04,3.216e+04
148.6,1.264e+03,9.247e+03,2.037e+04,3.088e+04
150.0,1.496e+03,9.638e+03,1.960e+04,3.074e+04
151.4,1.784e+03,1.010e+04,1.599e+04,2.787e+04
152.8,1.900e+03,9.064e+03,1.356e+04,2.452e+04
154.3,2.050e+03,7.776e+03,1.230e+04,2.213e+04
155.7,2.319e+03,6.724e+03,1.231e+04,2.136e+04
157.1,2.386e+03,5.561e+03,1.349e+04,2.144e+04
158.6,2.209e+03,4.565e+03,1.411e+04,2.089e+04
160.0,1.942e+03,3.721e+03,1.449e+04,2.015e+04
161.4,1.682e+03,2.918e+03,1.476e+04,1.935e+04
162.8,1.469e+03,2.194e+03,1.384e+04,1.750e+04
164.3,1.175e+03,1.778e+03,1.231e+04,1.526e+04
165.7,8.394e+02,1.367e+03,1.118e+04,1.339e+04
167.1,6.131e+02,1.147e+03,1.042e+04,1.218e+04
168.6,5.529e+02,1.051e+03,9.399e+03,1.100e+04
170.0,5.189e+02,9.984e+02,8.602e+03,1.012e+04
171.4,5.061e+02,1.027e+03,8.077e+03,9.610e+03
172.8,5.695e+02,1.275e+03,8.977e+03,1.082e+04
174.3,7.430e+02,1.612e+03,1.191e+04,1.427e+04
175.7,8.420e+02,1.747e+03,1.394e+04,1.653e+04
177.1,9.821e+02,1.758e+03,1.622e+04,1.896e+04
178.6,9.823e+02,1.757e+03,1.658e+04,1.932e+04
180.0,8.935e+02,1.779e+03,1.608e+04,1.875e+04
181.4,9.751e+02,1.841e+03,1.556e+04,1.838e+04
182.8,1.698e+03,1.845e+03,1.430e+04,1.784e+04
184.3,2.391e+03,1.895e+03,1.368e+04,1.797e+04
185.7,2.274e+03,1.845e+03,1.347e+04,1.759e+04
187.1,1.945e+03,1.745e+03,1.336e+04,1.705e+04
188.6,2.769e+03,2.161e+03,1.386e+04,1.879e+04
190.0,2.795e+03,2.196e+03,1.319e+04,1.818e+04
191.4,3.180e+03,2.461e+03,1.353e+04,1.917e+04
192.8,5.988e+03,3.173e+03,1.506e+04,2.422e+04
194.3,9.045e+03,3.899e+03,1.704e+04,2.999e+04
195.7,4.807e+03,3.859e+03,1.797e+04,2.664e+04
197.1,4.341e+03,4.398e+03,1.873e+04,2.747e+04
198.6,5.857e+03,5.666e+03,1.928e+04,3.080e+04
200.0,8.090e+03,7.164e+03,1.874e+04,3.399e+04
