freq,psd_x,psd_y,psd_z,psd_xyz
0.0,4.377e+02,1.371e+01,4.157e+01,4.930e+02
1.4,2.567e+02,2.285e+01,5.067e+01,3.302e+02
2.9,1.943e+01,1.945e+01,3.180e+01,7.069e+01
4.3,1.851e+02,1.855e+01,3.050e+01,2.342e+02
5.7,9.984e+02,1.873e+01,2.957e+01,1.047e+03
7.2,1.726e+03,1.847e+01,2.996e+01,1.775e+03
8.6,2.387e+03,1.760e+01,2.909e+01,2.434e+03
10.0,3.382e+03,1.728e+01,2.879e+01,3.428e+03
11.4,4.442e+03,1.924e+01,3.541e+01,4.497e+03
12.9,5.781e+03,2.017e+01,3.656e+01,5.838e+03
14.3,6.952e+03,2.019e+01,3.186e+01,7.004e+03
15.7,7.886e+03,2.094e+01,3.093e+01,7.938e+03
17.2,1.012e+04,2.319e+01,3.055e+01,1.017e+04
18.6,1.264e+04,3.139e+01,3.677e+01,1.271e+04
20.0,1.511e+04,3.874e+01,4.155e+01,1.519e+04
21.5,1.849e+04,4.631e+01,5.258e+01,1.859e+04
22.9,2.238e+04,5.309e+01,4.705e+01,2.248e+04
24.3,2.648e+04,6.591e+01,3.560e+01,2.658e+04
25.7,3.135e+04,7.453e+01,3.851e+01,3.146e+04
27.2,3.740e+04,7.249e+01,3.778e+01,3.751e+04
28.6,4.418e+04,7.434e+01,3.389e+01,4.429e+04
30.0,5.229e+04,1.054e+02,3.838e+01,5.244e+04
31.5,6.237e+04,1.358e+02,4.780e+01,6.255e+04
32.9,7.366e+04,1.605e+02,9.901e+01,7.391e+04
34.3,8.787e+04,1.549e+02,2.865e+02,8.831e+04
35.8,1.070e+05,9.092e+01,6.719e+02,1.078e+05
37.2,1.323e+05,9.225e+01,1.606e+03,1.340e+05
38.6,1.681e+05,2.344e+02,4.944e+03,1.733e+05
40.0,2.175e+05,7.873e+02,1.802e+04,2.363e+05
41.5,2.661e+05,2.078e+03,5.365e+04,3.218e+05
42.9,3.194e+05,2.769e+03,7.901e+04,4.012e+05
44.3,4.285e+05,2.352e+03,7.031e+04,5.012e+05
45.8,6.305e+05,1.834e+03,5.301e+04,6.854e+05
47.2,9.956e+05,1.528e+03,3.843e+04,1.036e+06
48.6,1.429e+06,1.575e+03,3.012e+04,1.460e+06
50.1,1.595e+06,2.004e+03,3.843e+04,1.636e+06
51.5,1.587e+06,2.941e+03,8.438e+04,1.674e+06
52.9,1.229e+06,2.500e+03,1.362e+05,1.368e+06
54.4,8.098e+05,9.772e+02,1.289e+05,9.396e+05
55.8,6.897e+05,9.898e+02,1.014e+05,7.921e+05
57.2,8.118e+05,2.391e+03,8.573e+04,8.999e+05
58.6,7.584e+05,3.964e+03,6.452e+04,8.268e+05
60.1,5.764e+05,5.587e+03,4.394e+04,6.259e+05
61.5,4.215e+05,7.738e+03,3.236e+04,4.616e+05
62.9,3.303e+05,1.013e+04,3.070e+04,3.711e+05
64.4,2.800e+05,1.071e+04,3.500e+04,3.258e+05
65.8,2.452e+05,7.645e+03,3.328e+04,2.861e+05
67.2,2.148e+05,4.747e+03,2.588e+04,2.455e+05
68.7,1.821e+05,3.319e+03,1.962e+04,2.051e+05
70.1,1.450e+05,2.578e+03,1.458e+04,1.622e+05
71.5,1.120e+05,2.241e+03,1.087e+04,1.251e+05
72.9,8.596e+04,1.960e+03,8.281e+03,9.620e+04
74.4,6.866e+04,1.712e+03,6.643e+03,7.702e+04
75.8,5.914e+04,1.483e+03,5.565e+03,6.618e+04
77.2,5.095e+04,1.272e+03,4.684e+03,5.691e+04
78.7,4.169e+04,1.038e+03,3.985e+03,4.671e+04
80.1,3.330e+04,7.461e+02,3.454e+03,3.750e+04
81.5,2.957e+04,8.219e+02,3.349e+03,3.374e+04
83.0,2.806e+04,9.408e+02,3.306e+03,3.231e+04
84.4,3.122e+04,2.110e+03,3.950e+03,3.728e+04
85.8,3.334e+04,5.331e+03,5.812e+03,4.449e+04
87.3,3.113e+04,9.052e+03,8.030e+03,4.821e+04
88.7,2.757e+04,1.276e+04,1.080e+04,5.112e+04
90.1,2.346e+04,1.478e+04,1.280e+04,5.104e+04
91.5,1.776e+04,1.063e+04,9.380e+03,3.777e+04
93.0,1.429e+04,7.532e+03,5.389e+03,2.721e+04
94.4,1.278e+04,7.686e+03,4.083e+03,2.454e+04
95.8,1.067e+04,9.062e+03,3.350e+03,2.309e+04
97.3,9.018e+03,9.999e+03,2.776e+03,2.179e+04
98.7,7.489e+03,8.481e+03,2.280e+03,1.825e+04
100.1,6.376e+03,6.955e+03,2.214e+03,1.555e+04
101.6,6.469e+03,7.503e+03,2.982e+03,1.695e+04
103.0,7.172e+03,9.732e+03,4.462e+03,2.137e+04
104.4,8.537e+03,1.390e+04,6.469e+03,2.891e+04
105.8,1.377e+04,2.221e+04,9.447e+03,4.543e+04
107.3,1.451e+04,2.883e+04,9.626e+03,5.297e+04
108.7,8.942e+03,2.978e+04,8.757e+03,4.748e+04
110.1,6.518e+03,2.380e+04,7.023e+03,3.734e+04
111.6,1.158e+04,1.829e+04,5.484e+03,3.534e+04
113.0,2.314e+04,1.608e+04,5.020e+03,4.424e+04
114.4,3.530e+04,1.779e+04,4.837e+03,5.793e+04
115.9,4.479e+04,2.086e+04,4.724e+03,7.037e+04
117.3,5.801e+04,2.217e+04,4.901e+03,8.508e+04
118.7,6.252e+04,2.213e+04,4.996e+03,8.964e+04
120.1,5.995e+04,2.234e+04,5.107e+03,8.739e+04
121.6,6.285e+04,2.292e+04,6.625e+03,9.239e+04
123.0,6.812e+04,2.236e+04,8.316e+03,9.879e+04
124.4,7.353e+04,2.011e+04,1.004e+04,1.037e+05
125.9,7.692e+04,1.704e+04,1.179e+04,1.058e+05
127.3,7.716e+04,1.412e+04,1.338e+04,1.047e+05
128.7,7.537e+04,1.170e+04,1.505e+04,1.021e+05
130.2,7.279e+04,1.061e+04,1.725e+04,1.006e+05
131.6,7.197e+04,1.059e+04,1.975e+04,1.023e+05
133.0,5.347e+04,1.060e+04,1.700e+04,8.108e+04
134.5,2.614e+04,1.167e+04,1.177e+04,4.958e+04
135.9,2.401e+04,1.583e+04,1.346e+04,5.330e+04
137.3,2.452e+04,2.040e+04,1.563e+04,6.055e+04
138.7,2.464e+04,2.632e+04,1.798e+04,6.894e+04
140.2,2.819e+04,3.625e+04,2.245e+04,8.689e+04
141.6,3.290e+04,5.404e+04,3.001e+04,1.169e+05
143.0,3.622e+04,7.784e+04,3.877e+04,1.528e+05
144.5,3.992e+04,1.049e+05,4.721e+04,1.920e+05
145.9,4.448e+04,1.369e+05,5.615e+04,2.375e+05
147.3,4.432e+04,1.511e+05,5.826e+04,2.537e+05
148.8,3.803e+04,1.404e+05,5.149e+04,2.299e+05
150.2,2.873e+04,1.196e+05,4.098e+04,1.893e+05
151.6,2.097e+04,1.039e+05,3.305e+04,1.579e+05
153.0,1.374e+04,8.941e+04,2.570e+04,1.288e+05
154.5,1.073e+04,8.632e+04,2.189e+04,1.189e+05
155.9,8.633e+03,6.965e+04,1.561e+04,9.389e+04
157.3,1.032e+04,3.175e+04,6.011e+03,4.808e+04
158.8,7.362e+03,1.626e+04,2.930e+03,2.655e+04
160.2,6.979e+03,1.281e+04,2.565e+03,2.236e+04
161.6,8.977e+03,1.174e+04,2.508e+03,2.322e+04
163.1,1.041e+04,1.435e+04,2.735e+03,2.750e+04
164.5,1.107e+05,1.499e+05,2.421e+04,2.848e+05
165.9,1.658e+05,2.330e+05,3.619e+04,4.350e+05
167.3,1.985e+04,3.089e+04,4.206e+03,5.494e+04
168.8,3.667e+03,7.571e+03,6.900e+02,1.193e+04
170.2,3.342e+03,5.546e+03,4.963e+02,9.384e+03
171.6,3.065e+03,4.156e+03,3.837e+02,7.605e+03
173.1,3.118e+03,3.098e+03,3.133e+02,6.530e+03
174.5,2.979e+03,1.892e+03,2.273e+02,5.099e+03
175.9,2.834e+03,1.204e+03,1.771e+02,4.215e+03
177.4,2.289e+03,1.034e+03,1.332e+02,3.456e+03
178.8,1.781e+03,9.778e+02,1.245e+02,2.884e+03
180.2,1.903e+03,1.015e+03,1.256e+02,3.043e+03
181.7,2.170e+03,9.538e+02,1.521e+02,3.276e+03
183.1,2.300e+03,7.831e+02,1.721e+02,3.255e+03
184.5,2.530e+03,7.333e+02,1.903e+02,3.454e+03
185.9,2.919e+03,7.190e+02,2.499e+02,3.888e+03
187.4,3.485e+03,9.043e+02,3.411e+02,4.730e+03
188.8,4.350e+03,1.528e+03,4.239e+02,6.302e+03
190.2,4.759e+03,2.220e+03,3.915e+02,7.371e+03
191.7,5.575e+03,2.688e+03,3.370e+02,8.601e+03
193.1,6.297e+03,2.699e+03,3.014e+02,9.297e+03
194.5,6.830e+03,2.473e+03,2.922e+02,9.595e+03
196.0,7.500e+03,2.232e+03,3.143e+02,1.005e+04
197.4,7.798e+03,1.843e+03,3.328e+02,9.974e+03
198.8,7.728e+03,1.465e+03,3.314e+02,9.524e+03
